351.0
350.0
353.0
349.0
340.0
336.0
341.0
341.0
327.0
316.0
313.0
312.0
306.0
303.0
297.0
293.0
291.0
286.0
279.0
274.0
274.0
273.0
264.0
256.0
255.0
253.0
250.0
247.0
247.0
256.0
258.0
254.0
245.0
240.0
231.0
225.0
218.0
206.0
208.0
216.0
212.0
205.0
204.0
217.0
224.0
212.0
235.0
345.0
447.0
447.0
370.0
289.0
216.0
100.0
95.0
165.0
223.0
195.0
160.0
171.0
196.0
197.0
185.0
187.0
197.0
205.0
203.0
205.0
217.0
232.0
235.0
231.0
232.0
236.0
238.0
239.0
238.0
239.0
240.0
244.0
249.0
254.0
260.0
266.0
270.0
275.0
279.0
283.0
286.0
290.0
293.0
295.0
296.0
299.0
303.0
304.0
308.0
308.0
312.0
316.0
318.0
315.0
309.0
300.0
290.0
281.0
270.0
261.0
249.0
244.0
243.0
240.0
236.0
237.0
241.0
243.0
246.0
249.0
258.0
264.0
265.0
266.0
274.0
284.0
290.0
294.0
299.0
305.0
311.0
319.0
327.0
331.0
336.0
342.0
347.0
351.0
355.0
360.0
362.0
366.0
369.0
369.0
375.0
382.0
384.0
387.0
392.0
394.0
396.0
401.0
406.0
410.0
411.0
416.0
422.0
424.0
425.0
428.0
433.0
435.0
434.0
434.0
438.0
441.0
441.0
440.0
444.0
446.0
444.0
442.0
445.0
448.0
448.0
448.0
448.0
446.0
444.0
446.0
447.0
446.0
447.0
448.0
445.0
443.0
448.0
449.0
448.0
449.0
450.0
454.0
464.0
469.0
459.0
445.0
437.0
436.0
436.0
433.0
429.0
430.0
431.0
431.0
428.0
427.0
439.0
451.0
444.0
466.0
559.0
643.0
621.0
519.0
441.0
398.0
341.0
355.0
401.0
417.0
404.0
399.0
405.0
409.0
406.0
405.0
409.0
409.0
406.0
407.0
408.0
410.0
408.0
405.0
406.0
405.0
406.0
406.0
405.0
405.0
407.0
405.0
406.0
408.0
407.0
410.0
412.0
413.0
416.0
421.0
423.0
427.0
430.0
432.0
435.0
441.0
445.0
446.0
448.0
451.0
449.0
448.0
446.0
446.0
440.0
428.0
420.0
413.0
398.0
383.0
376.0
372.0
365.0
358.0
354.0
352.0
349.0
348.0
347.0
346.0
345.0
342.0
344.0
347.0
346.0
344.0
344.0
343.0
344.0
345.0
347.0
345.0
344.0
344.0
344.0
342.0
341.0
342.0
341.0
342.0
339.0
338.0
337.0
335.0
335.0
333.0
330.0
329.0
329.0
329.0
329.0
328.0
327.0
327.0
327.0
325.0
322.0
321.0
323.0
322.0
319.0
320.0
323.0
320.0
317.0
315.0
319.0
320.0
319.0
318.0
316.0
318.0
318.0
315.0
317.0
319.0
318.0
320.0
325.0
327.0
327.0
329.0
331.0
333.0
328.0
326.0
323.0
317.0
311.0
309.0
306.0
306.0
307.0
308.0
306.0
306.0
307.0
312.0
326.0
331.0
326.0
365.0
459.0
512.0
464.0
373.0
322.0
270.0
224.0
260.0
307.0
310.0
295.0
296.0
305.0
306.0
305.0
305.0
306.0
306.0
308.0
309.0
311.0
315.0
315.0
314.0
313.0
315.0
316.0
316.0
317.0
318.0
321.0
324.0
326.0
327.0
326.0
329.0
334.0
337.0
337.0
341.0
350.0
354.0
356.0
359.0
368.0
376.0
379.0
381.0
385.0
387.0
387.0
387.0
387.0
383.0
374.0
364.0
355.0
346.0
335.0
323.0
318.0
313.0
307.0
304.0
303.0
302.0
299.0
298.0
299.0
299.0
299.0
297.0
299.0
300.0
302.0
302.0
304.0
306.0
305.0
306.0
310.0
312.0
311.0
310.0
312.0
314.0
314.0
312.0
313.0
314.0
313.0
312.0
313.0
313.0
312.0
312.0
311.0
312.0
313.0
313.0
313.0
313.0
315.0
316.0
315.0
313.0
312.0
313.0
317.0
318.0
317.0
317.0
318.0
317.0
317.0
317.0
320.0
318.0
317.0
318.0
317.0
317.0
319.0
319.0
318.0
318.0
318.0
321.0
323.0
319.0
321.0
328.0
331.0
331.0
331.0
336.0
341.0
339.0
336.0
337.0
336.0
328.0
323.0
320.0
318.0
317.0
319.0
320.0
320.0
322.0
322.0
320.0
331.0
343.0
337.0
360.0
451.0
530.0
516.0
418.0
341.0
298.0
240.0
256.0
311.0
327.0
312.0
304.0
313.0
320.0
319.0
314.0
313.0
319.0
321.0
321.0
321.0
321.0
323.0
323.0
323.0
324.0
327.0
327.0
327.0
328.0
330.0
335.0
335.0
334.0
333.0
336.0
339.0
341.0
342.0
350.0
357.0
357.0
362.0
369.0
377.0
384.0
387.0
388.0
392.0
396.0
398.0
397.0
396.0
395.0
390.0
382.0
370.0
360.0
350.0
340.0
331.0
323.0
318.0
314.0
310.0
307.0
307.0
306.0
307.0
309.0
305.0
305.0
308.0
309.0
309.0
310.0
309.0
308.0
313.0
318.0
319.0
313.0
315.0
319.0
319.0
317.0
317.0
319.0
319.0
316.0
318.0
318.0
317.0
315.0
314.0
319.0
320.0
318.0
317.0
319.0
320.0
318.0
316.0
319.0
321.0
320.0
320.0
321.0
322.0
319.0
320.0
322.0
322.0
323.0
324.0
323.0
323.0
322.0
321.0
325.0
327.0
324.0
323.0
324.0
326.0
328.0
329.0
327.0
326.0
327.0
328.0
327.0
328.0
327.0
325.0
326.0
332.0
336.0
333.0
331.0
336.0
339.0
345.0
354.0
356.0
346.0
336.0
332.0
333.0
329.0
326.0
326.0
329.0
329.0
329.0
330.0
334.0
348.0
350.0
347.0
408.0
524.0
580.0
527.0
417.0
354.0
283.0
239.0
285.0
336.0
334.0
316.0
317.0
326.0
326.0
322.0
324.0
329.0
330.0
327.0
328.0
330.0
331.0
333.0
334.0
335.0
334.0
336.0
339.0
340.0
343.0
344.0
345.0
344.0
347.0
351.0
350.0
352.0
357.0
363.0
365.0
368.0
375.0
382.0
389.0
393.0
399.0
405.0
408.0
412.0
415.0
418.0
418.0
416.0
412.0
407.0
398.0
386.0
374.0
363.0
353.0
344.0
336.0
330.0
325.0
322.0
319.0
319.0
321.0
319.0
319.0
320.0
321.0
321.0
323.0
323.0
324.0
327.0
327.0
327.0
327.0
327.0
329.0
331.0
332.0
332.0
330.0
331.0
333.0
333.0
331.0
331.0
331.0
333.0
331.0
330.0
332.0
334.0
331.0
329.0
334.0
334.0
333.0
333.0
331.0
332.0
333.0
335.0
335.0
335.0
335.0
335.0
334.0
334.0
335.0
336.0
337.0
336.0
334.0
335.0
336.0
337.0
339.0
338.0
338.0
337.0
341.0
343.0
342.0
342.0
342.0
346.0
348.0
350.0
351.0
348.0
358.0
373.0
371.0
355.0
345.0
345.0
346.0
341.0
339.0
341.0
344.0
346.0
345.0
343.0
348.0
366.0
368.0
367.0
425.0
526.0
556.0
481.0
384.0
342.0
289.0
275.0
314.0
345.0
345.0
336.0
336.0
341.0
343.0
343.0
345.0
346.0
347.0
348.0
349.0
352.0
355.0
353.0
352.0
355.0
356.0
353.0
354.0
358.0
359.0
358.0
357.0
362.0
368.0
368.0
369.0
368.0
371.0
378.0
382.0
383.0
387.0
394.0
399.0
402.0
409.0
415.0
417.0
416.0
419.0
423.0
421.0
417.0
413.0
407.0
400.0
391.0
379.0
371.0
362.0
356.0
348.0
343.0
340.0
336.0
336.0
337.0
335.0
332.0
332.0
333.0
332.0
332.0
332.0
332.0
333.0
335.0
337.0
339.0
338.0
340.0
342.0
338.0
338.0
340.0
341.0
342.0
339.0
338.0
338.0
337.0
339.0
339.0
336.0
332.0
335.0
336.0
337.0
334.0
332.0
332.0
332.0
332.0
333.0
332.0
330.0
331.0
332.0
331.0
330.0
330.0
331.0
331.0
328.0
327.0
329.0
328.0
328.0
329.0
329.0
328.0
334.0
341.0
340.0
338.0
343.0
348.0
347.0
342.0
337.0
334.0
330.0
323.0
323.0
321.0
320.0
319.0
320.0
323.0
324.0
322.0
328.0
345.0
344.0
343.0
391.0
479.0
512.0
440.0
356.0
325.0
270.0
249.0
288.0
321.0
319.0
311.0
312.0
318.0
318.0
316.0
319.0
321.0
321.0
322.0
325.0
325.0
324.0
324.0
326.0
329.0
330.0
331.0
330.0
333.0
335.0
333.0
335.0
337.0
340.0
342.0
344.0
347.0
350.0
352.0
356.0
361.0
366.0
371.0
377.0
383.0
387.0
390.0
394.0
396.0
398.0
400.0
398.0
395.0
390.0
384.0
373.0
359.0
348.0
342.0
336.0
327.0
319.0
316.0
315.0
311.0
306.0
307.0
310.0
310.0
305.0
306.0
308.0
308.0
310.0
312.0
312.0
311.0
311.0
314.0
316.0
319.0
320.0
320.0
319.0
319.0
323.0
325.0
322.0
316.0
315.0
319.0
320.0
321.0
320.0
316.0
315.0
317.0
317.0
317.0
317.0
318.0
319.0
316.0
315.0
317.0
320.0
319.0
317.0
315.0
316.0
318.0
319.0
317.0
318.0
318.0
319.0
317.0
318.0
323.0
326.0
330.0
330.0
335.0
336.0
332.0
331.0
334.0
333.0
324.0
316.0
316.0
317.0
316.0
313.0
314.0
315.0
314.0
314.0
316.0
330.0
341.0
332.0
359.0
452.0
530.0
512.0
405.0
324.0
282.0
235.0
258.0
307.0
322.0
310.0
304.0
311.0
314.0
314.0
314.0
314.0
317.0
317.0
319.0
320.0
320.0
323.0
322.0
324.0
326.0
326.0
325.0
328.0
331.0
330.0
333.0
335.0
336.0
336.0
338.0
341.0
344.0
347.0
353.0
355.0
360.0
367.0
373.0
381.0
386.0
390.0
392.0
395.0
397.0
397.0
398.0
400.0
396.0
387.0
379.0
370.0
359.0
346.0
336.0
328.0
322.0
316.0
311.0
309.0
308.0
306.0
308.0
306.0
304.0
304.0
309.0
310.0
307.0
308.0
312.0
312.0
312.0
314.0
317.0
318.0
317.0
315.0
317.0
318.0
320.0
319.0
318.0
318.0
318.0
318.0
320.0
318.0
315.0
314.0
317.0
319.0
316.0
317.0
316.0
315.0
318.0
320.0
318.0
315.0
316.0
320.0
320.0
320.0
321.0
321.0
320.0
322.0
320.0
320.0
322.0
322.0
322.0
321.0
320.0
323.0
324.0
324.0
327.0
331.0
334.0
334.0
339.0
341.0
335.0
339.0
343.0
340.0
330.0
323.0
322.0
322.0
321.0
317.0
319.0
321.0
321.0
318.0
319.0
333.0
347.0
337.0
347.0
442.0
548.0
561.0
469.0
369.0
314.0
241.0
244.0
303.0
335.0
319.0
306.0
313.0
320.0
320.0
315.0
317.0
321.0
325.0
328.0
325.0
323.0
324.0
328.0
332.0
332.0
330.0
328.0
334.0
335.0
336.0
338.0
337.0
341.0
344.0
343.0
343.0
349.0
358.0
358.0
361.0
369.0
376.0
381.0
385.0
390.0
398.0
402.0
405.0
406.0
410.0
413.0
413.0
408.0
402.0
395.0
385.0
371.0
357.0
345.0
337.0
332.0
326.0
320.0
314.0
311.0
313.0
313.0
312.0
312.0
311.0
313.0
314.0
314.0
313.0
317.0
320.0
319.0
318.0
320.0
323.0
323.0
323.0
327.0
329.0
323.0
322.0
326.0
327.0
323.0
322.0
326.0
327.0
325.0
325.0
325.0
325.0
328.0
328.0
327.0
326.0
326.0
327.0
328.0
325.0
327.0
327.0
329.0
331.0
328.0
326.0
330.0
332.0
330.0
328.0
330.0
329.0
331.0
332.0
332.0
333.0
332.0
334.0
335.0
333.0
333.0
336.0
341.0
346.0
348.0
350.0
352.0
355.0
355.0
353.0
350.0
344.0
337.0
336.0
335.0
331.0
332.0
333.0
334.0
335.0
334.0
332.0
342.0
359.0
354.0
363.0
443.0
541.0
550.0
459.0
368.0
323.0
261.0
267.0
317.0
341.0
332.0
323.0
328.0
334.0
332.0
332.0
336.0
338.0
336.0
337.0
341.0
343.0
342.0
340.0
341.0
342.0
346.0
348.0
346.0
349.0
351.0
353.0
354.0
353.0
354.0
358.0
362.0
364.0
365.0
370.0
377.0
382.0
384.0
389.0
395.0
403.0
408.0
410.0
413.0
416.0
416.0
416.0
415.0
416.0
411.0
403.0
393.0
382.0
373.0
364.0
353.0
344.0
341.0
339.0
336.0
332.0
328.0
330.0
332.0
329.0
327.0
328.0
328.0
328.0
332.0
331.0
329.0
334.0
337.0
337.0
336.0
337.0
336.0
336.0
338.0
340.0
338.0
337.0
338.0
340.0
339.0
335.0
336.0
339.0
339.0
336.0
334.0
336.0
336.0
337.0
336.0
337.0
337.0
337.0
338.0
336.0
335.0
336.0
336.0
339.0
343.0
345.0
348.0
352.0
353.0
355.0
355.0
350.0
344.0
342.0
337.0
333.0
331.0
330.0
331.0
333.0
334.0
334.0
333.0
331.0
336.0
352.0
355.0
346.0
386.0
478.0
532.0
480.0
389.0
341.0
292.0
265.0
301.0
332.0
335.0
329.0
330.0
336.0
337.0
338.0
337.0
341.0
345.0
345.0
344.0
345.0
347.0
349.0
350.0
351.0
352.0
352.0
355.0
357.0
358.0
359.0
359.0
362.0
363.0
365.0
369.0
370.0
374.0
376.0
380.0
387.0
391.0
394.0
395.0
403.0
409.0
411.0
414.0
416.0
418.0
420.0
419.0
415.0
409.0
402.0
394.0
385.0
377.0
366.0
355.0
351.0
352.0
346.0
338.0
337.0
338.0
338.0
338.0
336.0
335.0
338.0
336.0
336.0
337.0
338.0
339.0
339.0
339.0
338.0
339.0
343.0
344.0
341.0
340.0
344.0
342.0
339.0
340.0
342.0
341.0
340.0
337.0
336.0
336.0
338.0
336.0
333.0
333.0
332.0
332.0
334.0
334.0
330.0
328.0
329.0
332.0
334.0
333.0
335.0
338.0
338.0
339.0
344.0
345.0
343.0
340.0
338.0
334.0
330.0
327.0
322.0
318.0
317.0
318.0
318.0
317.0
318.0
318.0
319.0
323.0
340.0
341.0
336.0
388.0
478.0
513.0
446.0
353.0
318.0
271.0
250.0
283.0
314.0
317.0
309.0
310.0
316.0
317.0
314.0
312.0
315.0
319.0
318.0
319.0
321.0
322.0
322.0
323.0
324.0
324.0
325.0
328.0
327.0
328.0
329.0
331.0
333.0
335.0
336.0
337.0
342.0
347.0
349.0
350.0
353.0
361.0
366.0
370.0
377.0
380.0
381.0
384.0
389.0
390.0
389.0
389.0
387.0
382.0
373.0
365.0
354.0
344.0
333.0
323.0
320.0
316.0
312.0
310.0
309.0
308.0
308.0
307.0
305.0
303.0
306.0
307.0
307.0
309.0
310.0
311.0
314.0
314.0
311.0
314.0
318.0
319.0
317.0
316.0
316.0
318.0
321.0
320.0
317.0
315.0
318.0
318.0
316.0
317.0
318.0
319.0
318.0
318.0
319.0
317.0
316.0
317.0
320.0
321.0
319.0
316.0
317.0
320.0
319.0
319.0
321.0
320.0
320.0
320.0
321.0
317.0
318.0
321.0
321.0
320.0
320.0
321.0
321.0
322.0
329.0
335.0
332.0
331.0
335.0
336.0
335.0
336.0
333.0
325.0
320.0
320.0
319.0
318.0
314.0
316.0
321.0
321.0
319.0
319.0
332.0
344.0
338.0
356.0
436.0
517.0
515.0
415.0
326.0
301.0
257.0
260.0
304.0
327.0
320.0
313.0
316.0
321.0
320.0
317.0
322.0
325.0
323.0
323.0
324.0
324.0
328.0
330.0
329.0
328.0
330.0
333.0
333.0
333.0
334.0
336.0
338.0
339.0
340.0
344.0
346.0
348.0
349.0
352.0
357.0
362.0
366.0
371.0
377.0
382.0
387.0
391.0
394.0
397.0
398.0
400.0
401.0
397.0
391.0
384.0
375.0
363.0
352.0
344.0
337.0
329.0
322.0
318.0
316.0
314.0
313.0
310.0
310.0
312.0
313.0
314.0
313.0
313.0
315.0
314.0
314.0
316.0
317.0
317.0
318.0
317.0
320.0
321.0
319.0
317.0
319.0
320.0
320.0
317.0
317.0
319.0
321.0
318.0
314.0
317.0
318.0
319.0
317.0
317.0
319.0
318.0
317.0
316.0
318.0
319.0
319.0
319.0
320.0
320.0
318.0
318.0
321.0
322.0
319.0
318.0
320.0
320.0
321.0
321.0
323.0
324.0
322.0
322.0
322.0
323.0
322.0
322.0
325.0
323.0
324.0
325.0
323.0
322.0
325.0
325.0
325.0
324.0
326.0
327.0
326.0
326.0
325.0
325.0
325.0
328.0
333.0
338.0
336.0
336.0
340.0
347.0
348.0
343.0
336.0
333.0
330.0
324.0
323.0
321.0
322.0
322.0
322.0
321.0
321.0
322.0
336.0
343.0
334.0
369.0
476.0
554.0
534.0
422.0
342.0
301.0
244.0
261.0
314.0
330.0
313.0
305.0
313.0
320.0
318.0
313.0
318.0
320.0
320.0
322.0
324.0
323.0
322.0
321.0
325.0
328.0
329.0
328.0
328.0
331.0
334.0
335.0
336.0
337.0
338.0
341.0
344.0
348.0
349.0
352.0
359.0
364.0
369.0
373.0
379.0
387.0
391.0
393.0
398.0
406.0
408.0
404.0
403.0
405.0
404.0
391.0
380.0
370.0
360.0
351.0
341.0
330.0
324.0
324.0
320.0
311.0
310.0
313.0
315.0
312.0
309.0
308.0
313.0
316.0
316.0
314.0
316.0
319.0
318.0
319.0
322.0
320.0
320.0
322.0
322.0
321.0
320.0
324.0
323.0
323.0
322.0
322.0
320.0
322.0
324.0
321.0
321.0
322.0
322.0
322.0
321.0
322.0
324.0
323.0
321.0
324.0
324.0
325.0
324.0
323.0
325.0
324.0
327.0
327.0
324.0
323.0
326.0
327.0
326.0
329.0
328.0
326.0
328.0
330.0
330.0
328.0
327.0
329.0
328.0
331.0
332.0
331.0
332.0
333.0
337.0
338.0
339.0
340.0
346.0
358.0
360.0
351.0
338.0
333.0
335.0
336.0
331.0
330.0
332.0
336.0
335.0
332.0
333.0
347.0
360.0
355.0
364.0
445.0
544.0
558.0
468.0
368.0
323.0
263.0
267.0
318.0
342.0
331.0
325.0
329.0
335.0
335.0
331.0
331.0
336.0
337.0
337.0
339.0
343.0
341.0
340.0
343.0
346.0
347.0
346.0
345.0
347.0
351.0
354.0
354.0
352.0
355.0
358.0
359.0
361.0
364.0
369.0
371.0
375.0
382.0
387.0
395.0
402.0
407.0
411.0
414.0
417.0
416.0
416.0
418.0
416.0
412.0
404.0
395.0
387.0
376.0
365.0
356.0
350.0
343.0
337.0
333.0
333.0
330.0
326.0
325.0
328.0
329.0
328.0
327.0
329.0
330.0
330.0
331.0
332.0
333.0
335.0
335.0
334.0
336.0
340.0
341.0
339.0
340.0
341.0
340.0
340.0
337.0
338.0
339.0
339.0
339.0
338.0
339.0
340.0
340.0
340.0
342.0
343.0
341.0
341.0
343.0
343.0
343.0
344.0
344.0
342.0
345.0
348.0
349.0
346.0
343.0
346.0
350.0
349.0
346.0
347.0
347.0
349.0
349.0
346.0
346.0
348.0
349.0
348.0
354.0
354.0
352.0
352.0
358.0
371.0
377.0
368.0
356.0
351.0
348.0
345.0
343.0
344.0
347.0
345.0
343.0
344.0
347.0
356.0
369.0
367.0
371.0
428.0
513.0
525.0
437.0
359.0
339.0
294.0
285.0
319.0
343.0
340.0
337.0
341.0
343.0
341.0
340.0
341.0
343.0
344.0
344.0
344.0
347.0
349.0
347.0
346.0
349.0
349.0
348.0
349.0
350.0
352.0
354.0
355.0
355.0
357.0
358.0
362.0
361.0
363.0
369.0
370.0
371.0
375.0
383.0
390.0
393.0
393.0
396.0
402.0
404.0
403.0
401.0
403.0
403.0
394.0
389.0
381.0
369.0
361.0
352.0
343.0
337.0
331.0
323.0
320.0
320.0
318.0
316.0
316.0
314.0
313.0
315.0
315.0
313.0
315.0
315.0
314.0
314.0
317.0
317.0
318.0
318.0
319.0
319.0
322.0
320.0
318.0
321.0
323.0
321.0
320.0
319.0
320.0
319.0
318.0
318.0
319.0
318.0
318.0
316.0
314.0
315.0
315.0
312.0
316.0
317.0
313.0
312.0
314.0
317.0
318.0
316.0
315.0
314.0
312.0
314.0
317.0
318.0
315.0
314.0
315.0
317.0
317.0
316.0
315.0
316.0
316.0
314.0
313.0
315.0
323.0
323.0
318.0
321.0
325.0
331.0
339.0
341.0
331.0
320.0
315.0
318.0
315.0
311.0
312.0
315.0
313.0
311.0
313.0
317.0
333.0
339.0
332.0
373.0
467.0
519.0
468.0
358.0
307.0
277.0
247.0
272.0
309.0
316.0
306.0
305.0
311.0
314.0
310.0
311.0
313.0
313.0
314.0
315.0
317.0
317.0
317.0
321.0
322.0
320.0
321.0
324.0
327.0
327.0
326.0
330.0
333.0
332.0
335.0
337.0
339.0
343.0
344.0
348.0
354.0
358.0
363.0
367.0
372.0
381.0
388.0
390.0
388.0
391.0
396.0
398.0
395.0
389.0
385.0
379.0
367.0
355.0
344.0
336.0
330.0
323.0
315.0
309.0
308.0
310.0
308.0
304.0
303.0
302.0
307.0
307.0
305.0
305.0
304.0
306.0
309.0
311.0
311.0
312.0
314.0
315.0
315.0
317.0
316.0
313.0
317.0
319.0
316.0
315.0
317.0
316.0
316.0
314.0
313.0
315.0
315.0
315.0
315.0
314.0
315.0
318.0
317.0
315.0
316.0
318.0
313.0
312.0
314.0
318.0
318.0
317.0
317.0
320.0
317.0
313.0
317.0
319.0
319.0
320.0
319.0
319.0
319.0
320.0
320.0
319.0
321.0
323.0
321.0
319.0
321.0
325.0
323.0
324.0
327.0
332.0
331.0
331.0
340.0
352.0
348.0
334.0
325.0
326.0
326.0
322.0
319.0
320.0
322.0
324.0
324.0
324.0
335.0
351.0
345.0
351.0
432.0
534.0
553.0
459.0
351.0
313.0
260.0
254.0
300.0
332.0
324.0
311.0
313.0
323.0
326.0
323.0
319.0
321.0
326.0
328.0
326.0
326.0
327.0
330.0
330.0
328.0
332.0
335.0
336.0
337.0
338.0
341.0
340.0
339.0
344.0
349.0
348.0
347.0
354.0
358.0
361.0
364.0
371.0
377.0
383.0
390.0
396.0
399.0
401.0
404.0
407.0
409.0
410.0
408.0
405.0
396.0
387.0
377.0
364.0
354.0
346.0
336.0
327.0
323.0
320.0
316.0
316.0
316.0
314.0
314.0
314.0
312.0
314.0
316.0
316.0
314.0
318.0
321.0
320.0
319.0
321.0
322.0
323.0
322.0
325.0
324.0
323.0
324.0
325.0
321.0
322.0
326.0
328.0
325.0
322.0
321.0
323.0
324.0
323.0
323.0
322.0
324.0
324.0
323.0
323.0
323.0
326.0
326.0
324.0
324.0
324.0
326.0
327.0
325.0
324.0
325.0
326.0
326.0
327.0
327.0
328.0
326.0
326.0
327.0
328.0
329.0
330.0
330.0
328.0
328.0
328.0
332.0
334.0
332.0
335.0
340.0
343.0
348.0
357.0
354.0
340.0
332.0
331.0
330.0
326.0
325.0
327.0
328.0
328.0
329.0
329.0
343.0
355.0
349.0
365.0
448.0
535.0
536.0
435.0
345.0
312.0
260.0
269.0
315.0
338.0
328.0
321.0
324.0
329.0
332.0
332.0
332.0
331.0
331.0
333.0
337.0
338.0
337.0
337.0
338.0
338.0
343.0
346.0
345.0
344.0
344.0
347.0
351.0
352.0
353.0
355.0
357.0
360.0
363.0
365.0
369.0
374.0
381.0
388.0
392.0
396.0
400.0
405.0
408.0
411.0
412.0
414.0
413.0
411.0
407.0
401.0
392.0
383.0
373.0
364.0
355.0
346.0
339.0
337.0
333.0
330.0
330.0
330.0
327.0
328.0
329.0
326.0
328.0
331.0
330.0
329.0
331.0
333.0
334.0
336.0
338.0
336.0
337.0
339.0
341.0
340.0
341.0
342.0
343.0
342.0
342.0
343.0
342.0
341.0
341.0
341.0
343.0
342.0
340.0
340.0
341.0
344.0
343.0
341.0
342.0
343.0
341.0
344.0
344.0
341.0
342.0
343.0
344.0
345.0
345.0
343.0
344.0
345.0
348.0
347.0
344.0
343.0
344.0
349.0
353.0
356.0
361.0
362.0
363.0
365.0
364.0
359.0
357.0
354.0
345.0
343.0
344.0
343.0
343.0
344.0
347.0
346.0
342.0
346.0
363.0
375.0
366.0
380.0
453.0
526.0
500.0
408.0
358.0
336.0
287.0
296.0
333.0
348.0
342.0
341.0
346.0
347.0
346.0
347.0
348.0
352.0
354.0
353.0
355.0
357.0
357.0
358.0
359.0
358.0
357.0
358.0
362.0
360.0
361.0
363.0
362.0
361.0
365.0
369.0
370.0
373.0
373.0
375.0
380.0
382.0
383.0
388.0
395.0
399.0
402.0
402.0
405.0
409.0
409.0
409.0
409.0
405.0
399.0
391.0
382.0
371.0
362.0
355.0
346.0
340.0
337.0
334.0
328.0
326.0
323.0
321.0
319.0
319.0
321.0
320.0
318.0
319.0
321.0
320.0
322.0
321.0
319.0
321.0
323.0
322.0
321.0
323.0
324.0
323.0
325.0
325.0
324.0
322.0
323.0
324.0
322.0
320.0
320.0
320.0
318.0
317.0
317.0
318.0
316.0
315.0
318.0
318.0
315.0
314.0
315.0
315.0
315.0
314.0
316.0
321.0
323.0
320.0
322.0
327.0
329.0
328.0
324.0
323.0
323.0
318.0
309.0
306.0
307.0
307.0
309.0
309.0
308.0
307.0
309.0
308.0
319.0
333.0
325.0
339.0
415.0
495.0
492.0
398.0
318.0
295.0
248.0
247.0
287.0
312.0
305.0
296.0
300.0
309.0
309.0
304.0
306.0
310.0
314.0
314.0
312.0
313.0
314.0
314.0
313.0
317.0
318.0
320.0
322.0
322.0
321.0
324.0
329.0
329.0
328.0
329.0
332.0
335.0
337.0
341.0
347.0
349.0
353.0
361.0
370.0
375.0
379.0
381.0
384.0
386.0
385.0
386.0
388.0
384.0
375.0
368.0
361.0
350.0
338.0
328.0
319.0
313.0
310.0
305.0
304.0
301.0
298.0
297.0
298.0
300.0
299.0
297.0
298.0
299.0
300.0
302.0
305.0
303.0
303.0
306.0
309.0
311.0
311.0
311.0
312.0
313.0
312.0
314.0
313.0
310.0
311.0
311.0
311.0
313.0
311.0
310.0
311.0
310.0
310.0
313.0
313.0
311.0
311.0
312.0
312.0
313.0
312.0
313.0
314.0
315.0
313.0
310.0
314.0
317.0
317.0
316.0
317.0
319.0
317.0
314.0
316.0
319.0
319.0
321.0
324.0
330.0
332.0
333.0
335.0
334.0
333.0
332.0
333.0
329.0
322.0
317.0
319.0
319.0
315.0
314.0
317.0
318.0
317.0
318.0
330.0
344.0
337.0
340.0
419.0
524.0
546.0
454.0
345.0
310.0
259.0
248.0
292.0
328.0
321.0
306.0
309.0
318.0
319.0
316.0
318.0
321.0
320.0
320.0
323.0
324.0
326.0
326.0
327.0
327.0
328.0
329.0
332.0
334.0
337.0
335.0
335.0
337.0
339.0
342.0
344.0
346.0
348.0
350.0
356.0
362.0
366.0
371.0
377.0
384.0
389.0
392.0
397.0
401.0
404.0
404.0
403.0
403.0
399.0
392.0
380.0
373.0
360.0
349.0
341.0
330.0
324.0
319.0
316.0
315.0
313.0
310.0
309.0
309.0
311.0
310.0
308.0
312.0
316.0
313.0
312.0
316.0
319.0
320.0
318.0
317.0
318.0
324.0
321.0
317.0
316.0
321.0
323.0
322.0
319.0
319.0
321.0
319.0
317.0
318.0
319.0
321.0
320.0
322.0
321.0
321.0
320.0
321.0
321.0
323.0
322.0
320.0
321.0
323.0
324.0
324.0
323.0
324.0
324.0
324.0
325.0
325.0
324.0
323.0
326.0
326.0
326.0
328.0
328.0
328.0
326.0
326.0
330.0
332.0
333.0
336.0
339.0
340.0
343.0
349.0
348.0
347.0
346.0
345.0
340.0
331.0
327.0
330.0
329.0
323.0
325.0
325.0
328.0
330.0
327.0
332.0
348.0
349.0
345.0
411.0
526.0
571.0
500.0
386.0
336.0
274.0
242.0
289.0
335.0
331.0
315.0
316.0
324.0
328.0
324.0
322.0
324.0
327.0
329.0
329.0
330.0
332.0
334.0
334.0
332.0
335.0
337.0
338.0
339.0
339.0
341.0
343.0
343.0
345.0
349.0
352.0
353.0
356.0
360.0
365.0
369.0
374.0
382.0
389.0
394.0
398.0
402.0
407.0
409.0
410.0
412.0
416.0
415.0
410.0
406.0
398.0
386.0
374.0
362.0
353.0
347.0
337.0
331.0
328.0
325.0
323.0
319.0
320.0
322.0
323.0
321.0
319.0
321.0
325.0
327.0
326.0
325.0
326.0
329.0
328.0
328.0
330.0
332.0
332.0
332.0
331.0
331.0
331.0
331.0
332.0
332.0
333.0
332.0
332.0
332.0
331.0
331.0
331.0
333.0
330.0
331.0
332.0
331.0
332.0
334.0
334.0
331.0
331.0
334.0
334.0
332.0
333.0
334.0
333.0
333.0
335.0
335.0
334.0
333.0
333.0
336.0
337.0
336.0
334.0
334.0
334.0
339.0
343.0
347.0
348.0
350.0
354.0
358.0
357.0
351.0
348.0
346.0
343.0
338.0
334.0
331.0
332.0
334.0
334.0
335.0
337.0
335.0
341.0
358.0
358.0
357.0
412.0
507.0
539.0
464.0
368.0
333.0
285.0
270.0
305.0
333.0
334.0
329.0
330.0
333.0
336.0
337.0
336.0
336.0
339.0
344.0
345.0
341.0
342.0
346.0
347.0
347.0
346.0
347.0
347.0
350.0
352.0
354.0
354.0
356.0
360.0
362.0
362.0
366.0
368.0
369.0
373.0
379.0
381.0
387.0
395.0
400.0
403.0
406.0
410.0
413.0
415.0
414.0
415.0
415.0
412.0
404.0
395.0
385.0
375.0
366.0
360.0
351.0
344.0
339.0
338.0
332.0
328.0
330.0
330.0
330.0
329.0
329.0
329.0
329.0
330.0
330.0
329.0
328.0
331.0
333.0
333.0
333.0
334.0
336.0
334.0
335.0
338.0
338.0
335.0
331.0
335.0
340.0
334.0
330.0
334.0
335.0
333.0
332.0
331.0
329.0
329.0
330.0
330.0
328.0
329.0
329.0
329.0
327.0
326.0
330.0
332.0
334.0
337.0
338.0
335.0
338.0
342.0
343.0
338.0
336.0
334.0
328.0
323.0
322.0
321.0
321.0
318.0
318.0
319.0
322.0
320.0
318.0
329.0
344.0
339.0
341.0
404.0
496.0
513.0
429.0
344.0
314.0
261.0
254.0
294.0
318.0
316.0
312.0
314.0
316.0
317.0
319.0
319.0
321.0
323.0
322.0
323.0
325.0
327.0
326.0
327.0
330.0
330.0
329.0
331.0
332.0
334.0
337.0
337.0
337.0
338.0
340.0
343.0
347.0
350.0
351.0
354.0
359.0
364.0
369.0
376.0
383.0
386.0
390.0
392.0
396.0
399.0
400.0
399.0
396.0
392.0
382.0
369.0
358.0
348.0
339.0
333.0
326.0
318.0
317.0
315.0
310.0
309.0
308.0
308.0
309.0
308.0
305.0
306.0
308.0
307.0
308.0
311.0
313.0
313.0
314.0
315.0
318.0
318.0
318.0
318.0
320.0
322.0
324.0
323.0
321.0
320.0
321.0
321.0
321.0
321.0
319.0
318.0
321.0
321.0
318.0
316.0
319.0
323.0
322.0
318.0
317.0
319.0
320.0
320.0
319.0
319.0
322.0
321.0
320.0
320.0
322.0
323.0
319.0
319.0
322.0
323.0
322.0
321.0
320.0
321.0
325.0
332.0
335.0
334.0
336.0
339.0
336.0
335.0
337.0
336.0
329.0
322.0
320.0
322.0
318.0
314.0
315.0
317.0
320.0
321.0
320.0
331.0
345.0
338.0
352.0
434.0
522.0
528.0
428.0
332.0
305.0
258.0
258.0
301.0
326.0
318.0
309.0
312.0
319.0
321.0
317.0
319.0
322.0
322.0
322.0
324.0
327.0
328.0
328.0
326.0
328.0
330.0
331.0
332.0
334.0
332.0
333.0
337.0
340.0
342.0
340.0
343.0
347.0
348.0
350.0
356.0
362.0
367.0
370.0
376.0
383.0
388.0
392.0
394.0
400.0
404.0
403.0
401.0
401.0
397.0
388.0
379.0
371.0
359.0
347.0
336.0
330.0
325.0
319.0
318.0
313.0
310.0
310.0
311.0
312.0
308.0
308.0
313.0
314.0
313.0
311.0
313.0
317.0
315.0
314.0
317.0
319.0
320.0
318.0
318.0
320.0
320.0
319.0
321.0
320.0
318.0
319.0
320.0
321.0
317.0
317.0
319.0
320.0
319.0
320.0
319.0
318.0
320.0
319.0
317.0
319.0
320.0
319.0
318.0
319.0
322.0
322.0
320.0
323.0
322.0
319.0
320.0
322.0
326.0
325.0
323.0
323.0
325.0
324.0
324.0
325.0
325.0
324.0
325.0
326.0
327.0
328.0
327.0
326.0
324.0
329.0
330.0
329.0
329.0
330.0
329.0
328.0
331.0
332.0
331.0
330.0
332.0
339.0
342.0
343.0
343.0
345.0
349.0
352.0
349.0
345.0
342.0
338.0
331.0
328.0
327.0
328.0
328.0
325.0
325.0
329.0
330.0
336.0
349.0
347.0
355.0
440.0
544.0
565.0
476.0
368.0
328.0
263.0
250.0
304.0
338.0
327.0
314.0
316.0
324.0
326.0
325.0
323.0
325.0
328.0
327.0
329.0
332.0
331.0
329.0
331.0
334.0
336.0
337.0
338.0
341.0
341.0
340.0
340.0
343.0
348.0
349.0
347.0
350.0
356.0
358.0
359.0
365.0
374.0
380.0
384.0
390.0
394.0
399.0
404.0
406.0
409.0
413.0
415.0
412.0
409.0
404.0
394.0
385.0
375.0
362.0
352.0
343.0
336.0
331.0
327.0
322.0
318.0
317.0
318.0
316.0
316.0
319.0
317.0
318.0
320.0
322.0
321.0
320.0
322.0
323.0
323.0
327.0
327.0
325.0
326.0
329.0
328.0
325.0
325.0
327.0
331.0
330.0
328.0
327.0
327.0
328.0
328.0
327.0
330.0
329.0
325.0
325.0
326.0
328.0
330.0
328.0
328.0
329.0
331.0
329.0
327.0
329.0
330.0
331.0
330.0
329.0
329.0
329.0
332.0
333.0
332.0
332.0
331.0
332.0
336.0
335.0
332.0
334.0
336.0
335.0
334.0
334.0
334.0
337.0
340.0
343.0
342.0
342.0
344.0
351.0
363.0
364.0
354.0
343.0
336.0
335.0
337.0
337.0
334.0
334.0
337.0
336.0
335.0
339.0
356.0
364.0
356.0
389.0
482.0
544.0
498.0
393.0
339.0
309.0
274.0
294.0
329.0
339.0
332.0
330.0
334.0
337.0
336.0
336.0
338.0
339.0
341.0
342.0
343.0
345.0
347.0
348.0
346.0
347.0
352.0
353.0
350.0
349.0
352.0
356.0
359.0
359.0
359.0
364.0
368.0
368.0
369.0
374.0
379.0
383.0
383.0
390.0
398.0
404.0
407.0
408.0
413.0
416.0
417.0
419.0
417.0
415.0
411.0
404.0
395.0
386.0
376.0
364.0
354.0
349.0
347.0
342.0
336.0
334.0
333.0
332.0
332.0
333.0
332.0
328.0
327.0
330.0
331.0
331.0
330.0
330.0
331.0
333.0
335.0
335.0
334.0
335.0
336.0
337.0
335.0
334.0
336.0
338.0
337.0
334.0
333.0
334.0
332.0
332.0
333.0
332.0
330.0
331.0
330.0
328.0
328.0
328.0
327.0
326.0
325.0
326.0
328.0
328.0
323.0
322.0
327.0
329.0
325.0
324.0
328.0
327.0
324.0
323.0
324.0
325.0
326.0
327.0
332.0
335.0
338.0
341.0
342.0
342.0
338.0
336.0
334.0
329.0
323.0
322.0
320.0
316.0
317.0
321.0
322.0
320.0
320.0
323.0
337.0
346.0
336.0
351.0
429.0
507.0
491.0
397.0
332.0
309.0
260.0
265.0
305.0
324.0
316.0
311.0
317.0
322.0
321.0
319.0
320.0
322.0
323.0
323.0
328.0
328.0
327.0
328.0
328.0
329.0
333.0
332.0
332.0
334.0
337.0
336.0
334.0
338.0
341.0
342.0
345.0
350.0
352.0
354.0
357.0
361.0
367.0
373.0
377.0
381.0
387.0
392.0
396.0
400.0
400.0
398.0
399.0
399.0
395.0
386.0
376.0
367.0
356.0
343.0
333.0
329.0
325.0
319.0
314.0
313.0
312.0
312.0
310.0
307.0
310.0
313.0
310.0
308.0
308.0
311.0
312.0
312.0
312.0
316.0
316.0
313.0
317.0
322.0
322.0
321.0
319.0
319.0
323.0
324.0
320.0
319.0
322.0
322.0
321.0
321.0
322.0
321.0
320.0
320.0
321.0
321.0
320.0
322.0
321.0
321.0
323.0
319.0
320.0
323.0
323.0
322.0
320.0
321.0
320.0
320.0
321.0
324.0
323.0
320.0
320.0
322.0
323.0
324.0
323.0
325.0
325.0
324.0
324.0
323.0
324.0
325.0
325.0
328.0
333.0
334.0
334.0
339.0
345.0
345.0
341.0
339.0
340.0
337.0
328.0
323.0
321.0
321.0
321.0
323.0
323.0
323.0
324.0
323.0
339.0
350.0
339.0
363.0
456.0
533.0
514.0
406.0
327.0
301.0
258.0
270.0
313.0
330.0
321.0
315.0
317.0
322.0
323.0
323.0
322.0
324.0
327.0
329.0
330.0
331.0
330.0
330.0
332.0
329.0
332.0
335.0
336.0
338.0
338.0
338.0
340.0
342.0
344.0
346.0
346.0
349.0
351.0
352.0
360.0
367.0
368.0
372.0
380.0
387.0
393.0
396.0
399.0
402.0
404.0
407.0
407.0
403.0
401.0
394.0
384.0
372.0
360.0
353.0
343.0
333.0
327.0
321.0
319.0
317.0
314.0
312.0
313.0
314.0
314.0
312.0
313.0
314.0
314.0
316.0
317.0
317.0
318.0
316.0
316.0
318.0
323.0
323.0
319.0
319.0
320.0
321.0
321.0
321.0
322.0
319.0
318.0
321.0
322.0
319.0
318.0
318.0
322.0
321.0
318.0
319.0
322.0
320.0
319.0
319.0
320.0
322.0
322.0
320.0
320.0
321.0
323.0
322.0
322.0
321.0
320.0
322.0
325.0
322.0
322.0
324.0
324.0
326.0
325.0
323.0
323.0
324.0
323.0
322.0
325.0
324.0
326.0
325.0
324.0
325.0
327.0
327.0
328.0
329.0
329.0
331.0
332.0
336.0
335.0
336.0
346.0
357.0
354.0
338.0
329.0
329.0
330.0
325.0
322.0
323.0
325.0
326.0
327.0
326.0
338.0
352.0
343.0
355.0
440.0
540.0
560.0
466.0
361.0
326.0
264.0
253.0
302.0
336.0
327.0
313.0
317.0
324.0
323.0
321.0
323.0
324.0
326.0
329.0
330.0
330.0
329.0
327.0
331.0
333.0
333.0
335.0
337.0
338.0
338.0
341.0
342.0
342.0
341.0
344.0
350.0
352.0
352.0
353.0
359.0
367.0
373.0
376.0
382.0
389.0
394.0
399.0
405.0
407.0
409.0
410.0
413.0
412.0
411.0
406.0
396.0
384.0
372.0
363.0
354.0
342.0
333.0
328.0
325.0
322.0
320.0
317.0
315.0
316.0
317.0
318.0
317.0
317.0
318.0
321.0
320.0
318.0
321.0
324.0
326.0
326.0
324.0
325.0
326.0
326.0
325.0
325.0
327.0
330.0
330.0
328.0
328.0
327.0
327.0
327.0
327.0
326.0
327.0
327.0
328.0
330.0
328.0
325.0
327.0
328.0
326.0
327.0
330.0
330.0
329.0
326.0
326.0
327.0
330.0
334.0
332.0
327.0
329.0
331.0
332.0
331.0
330.0
332.0
334.0
333.0
332.0
332.0
333.0
334.0
334.0
334.0
334.0
337.0
337.0
338.0
339.0
342.0
343.0
341.0
348.0
360.0
363.0
354.0
343.0
337.0
336.0
335.0
334.0
331.0
333.0
334.0
334.0
334.0
335.0
350.0
360.0
353.0
376.0
462.0
534.0
508.0
406.0
337.0
310.0
273.0
288.0
323.0
336.0
330.0
326.0
330.0
334.0
335.0
336.0
336.0
336.0
338.0
341.0
344.0
344.0
345.0
348.0
346.0
342.0
344.0
351.0
350.0
345.0
348.0
355.0
354.0
355.0
358.0
361.0
364.0
365.0
369.0
371.0
375.0
378.0
382.0
387.0
394.0
400.0
403.0
404.0
410.0
412.0
414.0
414.0
415.0
416.0
410.0
402.0
394.0
385.0
376.0
366.0
357.0
351.0
346.0
340.0
336.0
336.0
335.0
331.0
330.0
329.0
327.0
327.0
331.0
331.0
328.0
328.0
329.0
332.0
332.0
332.0
333.0
334.0
335.0
335.0
334.0
334.0
337.0
340.0
339.0
336.0
337.0
337.0
335.0
333.0
334.0
334.0
333.0
333.0
333.0
330.0
330.0
330.0
330.0
330.0
331.0
327.0
325.0
328.0
330.0
328.0
327.0
327.0
328.0
326.0
326.0
327.0
327.0
328.0
326.0
325.0
327.0
329.0
327.0
326.0
324.0
326.0
327.0
327.0
330.0
331.0
327.0
329.0
335.0
339.0
345.0
350.0
346.0
336.0
329.0
326.0
325.0
321.0
318.0
321.0
322.0
323.0
322.0
322.0
330.0
346.0
344.0
347.0
406.0
493.0
508.0
424.0
340.0
316.0
271.0
260.0
294.0
321.0
319.0
313.0
316.0
319.0
320.0
319.0
319.0
318.0
321.0
323.0
324.0
323.0
323.0
326.0
330.0
329.0
327.0
328.0
332.0
333.0
333.0
333.0
336.0
338.0
339.0
340.0
343.0
347.0
348.0
351.0
353.0
358.0
364.0
369.0
374.0
379.0
383.0
389.0
394.0
397.0
400.0
401.0
400.0
399.0
397.0
390.0
379.0
368.0
358.0
349.0
339.0
328.0
323.0
320.0
315.0
312.0
309.0
308.0
307.0
303.0
305.0
310.0
307.0
304.0
309.0
309.0
309.0
309.0
308.0
309.0
313.0
315.0
316.0
318.0
316.0
314.0
317.0
320.0
323.0
320.0
318.0
319.0
319.0
317.0
317.0
319.0
319.0
316.0
318.0
318.0
316.0
318.0
320.0
317.0
314.0
317.0
320.0
318.0
316.0
318.0
317.0
316.0
318.0
320.0
322.0
321.0
316.0
316.0
322.0
321.0
317.0
319.0
321.0
322.0
323.0
322.0
320.0
321.0
324.0
322.0
320.0
320.0
321.0
321.0
324.0
329.0
332.0
330.0
332.0
334.0
341.0
349.0
346.0
337.0
335.0
331.0
324.0
322.0
320.0
320.0
319.0
321.0
322.0
322.0
323.0
333.0
346.0
340.0
353.0
434.0
525.0
534.0
437.0
339.0
309.0
261.0
255.0
300.0
327.0
320.0
314.0
314.0
317.0
318.0
318.0
318.0
319.0
323.0
324.0
323.0
323.0
322.0
326.0
329.0
327.0
325.0
330.0
335.0
335.0
331.0
332.0
338.0
339.0
336.0
339.0
344.0
345.0
346.0
350.0
356.0
363.0
369.0
370.0
375.0
382.0
391.0
398.0
399.0
400.0
405.0
407.0
408.0
408.0
403.0
396.0
388.0
379.0
365.0
353.0
346.0
339.0
330.0
323.0
318.0
317.0
313.0
312.0
312.0
312.0
310.0
311.0
312.0
311.0
312.0
313.0
313.0
313.0
316.0
317.0
316.0
316.0
318.0
319.0
320.0
318.0
319.0
320.0
321.0
321.0
321.0
320.0
320.0
321.0
319.0
321.0
321.0
320.0
320.0
321.0
321.0
321.0
322.0
322.0
321.0
320.0
320.0
324.0
323.0
323.0
323.0
322.0
322.0
323.0
325.0
325.0
324.0
324.0
327.0
327.0
325.0
324.0
324.0
327.0
327.0
326.0
326.0
329.0
330.0
327.0
326.0
330.0
331.0
331.0
334.0
337.0
335.0
333.0
339.0
342.0
349.0
357.0
360.0
351.0
340.0
334.0
335.0
335.0
330.0
326.0
329.0
332.0
331.0
331.0
337.0
352.0
354.0
348.0
397.0
506.0
569.0
527.0
411.0
344.0
298.0
253.0
282.0
333.0
340.0
324.0
321.0
328.0
330.0
328.0
329.0
332.0
333.0
331.0
331.0
336.0
338.0
336.0
334.0
337.0
342.0
343.0
340.0
340.0
345.0
346.0
347.0
348.0
347.0
351.0
354.0
356.0
358.0
361.0
364.0
372.0
378.0
378.0
382.0
393.0
398.0
401.0
407.0
413.0
415.0
415.0
417.0
417.0
417.0
411.0
402.0
393.0
383.0
372.0
362.0
353.0
345.0
336.0
330.0
327.0
326.0
324.0
322.0
321.0
323.0
324.0
323.0
323.0
321.0
322.0
322.0
320.0
322.0
327.0
327.0
326.0
328.0
332.0
333.0
330.0
329.0
332.0
332.0
328.0
330.0
332.0
332.0
330.0
329.0
332.0
331.0
330.0
329.0
330.0
329.0
330.0
331.0
330.0
329.0
327.0
331.0
333.0
330.0
329.0
332.0
333.0
331.0
329.0
331.0
334.0
332.0
332.0
332.0
332.0
334.0
336.0
334.0
334.0
336.0
337.0
336.0
335.0
337.0
342.0
342.0
339.0
341.0
343.0
352.0
364.0
365.0
356.0
345.0
340.0
339.0
340.0
337.0
336.0
338.0
341.0
340.0
337.0
339.0
357.0
369.0
361.0
382.0
461.0
537.0
510.0
402.0
339.0
321.0
285.0
296.0
328.0
341.0
336.0
334.0
335.0
339.0
341.0
338.0
338.0
342.0
344.0
346.0
345.0
343.0
344.0
348.0
350.0
349.0
348.0
349.0
348.0
351.0
352.0
351.0
353.0
357.0
357.0
356.0
358.0
363.0
367.0
369.0
369.0
373.0
380.0
383.0
387.0
396.0
402.0
400.0
402.0
411.0
413.0
411.0
410.0
408.0
405.0
398.0
389.0
377.0
369.0
363.0
352.0
344.0
340.0
338.0
333.0
329.0
328.0
327.0
326.0
326.0
327.0
328.0
325.0
323.0
325.0
327.0
327.0
326.0
329.0
330.0
329.0
329.0
330.0
332.0
333.0
333.0
333.0
332.0
331.0
331.0
332.0
333.0
331.0
329.0
331.0
332.0
329.0
327.0
328.0
328.0
326.0
325.0
326.0
326.0
325.0
326.0
328.0
327.0
323.0
325.0
327.0
326.0
325.0
324.0
322.0
324.0
324.0
325.0
325.0
324.0
326.0
332.0
332.0
330.0
335.0
342.0
341.0
338.0
336.0
338.0
333.0
326.0
320.0
320.0
320.0
316.0
315.0
317.0
318.0
317.0
317.0
324.0
341.0
342.0
336.0
378.0
471.0
517.0
458.0
358.0
319.0
286.0
254.0
278.0
313.0
319.0
314.0
311.0
313.0
316.0
316.0
316.0
317.0
321.0
322.0
320.0
322.0
324.0
323.0
324.0
327.0
328.0
326.0
330.0
332.0
332.0
331.0
331.0
334.0
336.0
338.0
341.0
344.0
344.0
346.0
351.0
358.0
363.0
367.0
372.0
376.0
381.0
390.0
394.0
395.0
398.0
404.0
406.0
400.0
398.0
394.0
382.0
370.0
361.0
351.0
340.0
333.0
325.0
318.0
314.0
314.0
312.0
308.0
309.0
308.0
308.0
307.0
307.0
306.0
307.0
309.0
309.0
309.0
310.0
311.0
312.0
313.0
315.0
314.0
316.0
318.0
316.0
315.0
320.0
321.0
319.0
318.0
318.0
318.0
317.0
316.0
316.0
318.0
318.0
316.0
314.0
315.0
317.0
318.0
317.0
315.0
316.0
316.0
318.0
318.0
315.0
315.0
317.0
319.0
319.0
317.0
318.0
319.0
317.0
318.0
319.0
319.0
318.0
318.0
320.0
321.0
321.0
321.0
322.0
324.0
321.0
323.0
329.0
333.0
332.0
335.0
342.0
340.0
335.0
333.0
336.0
335.0
326.0
319.0
322.0
323.0
320.0
316.0
317.0
321.0
322.0
322.0
331.0
345.0
338.0
343.0
420.0
521.0
542.0
457.0
348.0
313.0
268.0
254.0
294.0
327.0
319.0
308.0
311.0
316.0
321.0
320.0
318.0
321.0
325.0
324.0
322.0
325.0
328.0
326.0
327.0
328.0
330.0
329.0
329.0
334.0
337.0
334.0
334.0
338.0
341.0
342.0
344.0
344.0
346.0
351.0
354.0
359.0
364.0
370.0
374.0
379.0
384.0
392.0
397.0
398.0
402.0
404.0
407.0
407.0
400.0
396.0
389.0
378.0
365.0
353.0
342.0
335.0
328.0
319.0
314.0
314.0
316.0
313.0
309.0
309.0
311.0
312.0
310.0
308.0
310.0
314.0
314.0
312.0
314.0
314.0
315.0
317.0
316.0
316.0
316.0
318.0
318.0
319.0
316.0
316.0
321.0
320.0
319.0
317.0
318.0
319.0
319.0
319.0
317.0
315.0
316.0
317.0
317.0
317.0
319.0
319.0
319.0
317.0
317.0
318.0
321.0
320.0
319.0
320.0
321.0
321.0
320.0
321.0
322.0
321.0
321.0
323.0
326.0
322.0
321.0
325.0
327.0
325.0
326.0
325.0
324.0
326.0
327.0
326.0
326.0
324.0
324.0
327.0
332.0
331.0
329.0
334.0
337.0
333.0
335.0
337.0
343.0
355.0
359.0
347.0
336.0
332.0
332.0
331.0
326.0
324.0
330.0
332.0
330.0
327.0
330.0
348.0
353.0
343.0
389.0
504.0
578.0
541.0
422.0
349.0
306.0
252.0
272.0
326.0
336.0
318.0
314.0
324.0
327.0
323.0
326.0
329.0
327.0
327.0
331.0
332.0
332.0
332.0
333.0
337.0
339.0
336.0
336.0
342.0
343.0
340.0
342.0
345.0
348.0
349.0
351.0
352.0
356.0
361.0
362.0
365.0
370.0
379.0
385.0
389.0
394.0
400.0
405.0
411.0
414.0
414.0
418.0
418.0
416.0
413.0
405.0
395.0
387.0
376.0
363.0
351.0
344.0
341.0
336.0
329.0
324.0
324.0
325.0
325.0
323.0
322.0
323.0
323.0
322.0
323.0
326.0
325.0
325.0
325.0
328.0
330.0
331.0
331.0
332.0
332.0
332.0
332.0
332.0
333.0
334.0
332.0
330.0
334.0
334.0
330.0
327.0
331.0
333.0
332.0
332.0
330.0
332.0
332.0
332.0
333.0
333.0
330.0
330.0
334.0
333.0
333.0
332.0
333.0
332.0
332.0
336.0
335.0
333.0
334.0
337.0
337.0
337.0
336.0
334.0
335.0
337.0
338.0
339.0
338.0
337.0
339.0
341.0
342.0
343.0
346.0
346.0
354.0
364.0
367.0
357.0
347.0
341.0
341.0
339.0
337.0
337.0
339.0
341.0
340.0
339.0
345.0
360.0
366.0
358.0
392.0
486.0
543.0
494.0
392.0
341.0
312.0
278.0
299.0
330.0
340.0
335.0
333.0
336.0
338.0
337.0
336.0
339.0
340.0
339.0
343.0
345.0
345.0
346.0
344.0
346.0
349.0
349.0
346.0
348.0
351.0
351.0
349.0
352.0
356.0
355.0
354.0
358.0
361.0
366.0
369.0
369.0
374.0
380.0
384.0
388.0
394.0
400.0
403.0
403.0
407.0
414.0
416.0
413.0
410.0
406.0
398.0
388.0
379.0
372.0
360.0
349.0
344.0
340.0
334.0
327.0
330.0
329.0
324.0
323.0
324.0
323.0
321.0
321.0
321.0
322.0
321.0
322.0
324.0
325.0
325.0
324.0
326.0
328.0
328.0
328.0
328.0
329.0
330.0
330.0
330.0
331.0
330.0
331.0
330.0
328.0
325.0
327.0
329.0
327.0
325.0
325.0
324.0
325.0
325.0
323.0
322.0
324.0
325.0
323.0
322.0
323.0
324.0
325.0
323.0
324.0
325.0
324.0
323.0
322.0
324.0
324.0
322.0
322.0
324.0
326.0
325.0
323.0
323.0
326.0
329.0
329.0
328.0
330.0
332.0
338.0
347.0
349.0
337.0
327.0
324.0
325.0
324.0
320.0
319.0
319.0
322.0
323.0
321.0
323.0
340.0
348.0
340.0
373.0
465.0
527.0
482.0
372.0
316.0
294.0
262.0
278.0
311.0
322.0
315.0
311.0
315.0
322.0
321.0
318.0
319.0
321.0
322.0
323.0
326.0
324.0
324.0
325.0
325.0
327.0
328.0
331.0
332.0
332.0
333.0
333.0
335.0
336.0
338.0
339.0
342.0
346.0
349.0
349.0
353.0
359.0
364.0
370.0
376.0
382.0
388.0
391.0
397.0
400.0
398.0
400.0
403.0
405.0
396.0
387.0
377.0
367.0
356.0
346.0
337.0
329.0
323.0
318.0
317.0
316.0
312.0
312.0
310.0
309.0
309.0
311.0
311.0
309.0
310.0
310.0
312.0
314.0
311.0
312.0
316.0
317.0
315.0
317.0
321.0
320.0
320.0
319.0
321.0
321.0
320.0
321.0
323.0
323.0
322.0
320.0
319.0
321.0
321.0
320.0
319.0
320.0
322.0
321.0
319.0
317.0
318.0
320.0
320.0
320.0
320.0
325.0
324.0
320.0
322.0
324.0
321.0
321.0
324.0
324.0
321.0
320.0
322.0
325.0
325.0
324.0
323.0
327.0
326.0
324.0
325.0
327.0
326.0
325.0
326.0
328.0
332.0
332.0
333.0
335.0
335.0
342.0
353.0
352.0
339.0
329.0
325.0
329.0
327.0
321.0
322.0
327.0
327.0
325.0
325.0
332.0
348.0
347.0
344.0
406.0
508.0
543.0
468.0
353.0
316.0
280.0
259.0
292.0
327.0
326.0
316.0
315.0
320.0
322.0
322.0
321.0
322.0
325.0
326.0
327.0
329.0
329.0
328.0
328.0
331.0
333.0
334.0
334.0
334.0
335.0
336.0
338.0
340.0
338.0
341.0
346.0
350.0
348.0
349.0
354.0
358.0
364.0
370.0
378.0
382.0
387.0
393.0
400.0
405.0
404.0
405.0
411.0
412.0
405.0
400.0
394.0
386.0
375.0
359.0
351.0
343.0
334.0
327.0
323.0
319.0
317.0
316.0
315.0
316.0
314.0
314.0
315.0
315.0
315.0
314.0
315.0
316.0
316.0
317.0
318.0
318.0
318.0
319.0
320.0
322.0
325.0
323.0
321.0
322.0
322.0
324.0
323.0
320.0
320.0
323.0
322.0
322.0
321.0
322.0
320.0
318.0
320.0
323.0
322.0
318.0
320.0
324.0
324.0
322.0
320.0
322.0
325.0
322.0
322.0
322.0
323.0
323.0
321.0
322.0
323.0
323.0
326.0
323.0
321.0
325.0
325.0
323.0
322.0
322.0
325.0
327.0
326.0
327.0
325.0
325.0
326.0
327.0
327.0
329.0
333.0
334.0
333.0
333.0
334.0
339.0
351.0
357.0
347.0
335.0
326.0
328.0
328.0
322.0
321.0
323.0
327.0
325.0
324.0
324.0
338.0
351.0
343.0
363.0
458.0
550.0
553.0
445.0
348.0
315.0
258.0
260.0
311.0
335.0
320.0
311.0
320.0
326.0
323.0
320.0
324.0
328.0
326.0
325.0
329.0
332.0
330.0
330.0
332.0
334.0
336.0
337.0
339.0
339.0
337.0
339.0
343.0
345.0
340.0
344.0
351.0
352.0
351.0
356.0
363.0
367.0
370.0
375.0
384.0
392.0
394.0
397.0
404.0
407.0
411.0
416.0
414.0
414.0
413.0
409.0
399.0
386.0
373.0
363.0
355.0
345.0
337.0
330.0
324.0
320.0
320.0
320.0
320.0
318.0
318.0
318.0
322.0
321.0
320.0
319.0
318.0
320.0
323.0
326.0
326.0
324.0
324.0
329.0
331.0
328.0
329.0
329.0
329.0
330.0
330.0
330.0
329.0
328.0
328.0
329.0
330.0
329.0
328.0
330.0
332.0
331.0
330.0
329.0
328.0
329.0
330.0
332.0
332.0
332.0
330.0
329.0
331.0
332.0
334.0
333.0
331.0
331.0
334.0
337.0
334.0
334.0
334.0
335.0
336.0
336.0
336.0
334.0
337.0
340.0
336.0
335.0
338.0
340.0
339.0
341.0
342.0
346.0
344.0
344.0
345.0
348.0
358.0
368.0
366.0
353.0
345.0
341.0
341.0
340.0
337.0
339.0
342.0
340.0
340.0
340.0
346.0
362.0
364.0
361.0
408.0
503.0
542.0
474.0
373.0
336.0
302.0
280.0
307.0
335.0
341.0
335.0
333.0
337.0
338.0
339.0
340.0
341.0
341.0
343.0
345.0
344.0
344.0
345.0
346.0
347.0
349.0
348.0
348.0
351.0
351.0
351.0
351.0
350.0
355.0
358.0
358.0
359.0
361.0
366.0
373.0
373.0
377.0
380.0
386.0
392.0
396.0
398.0
402.0
409.0
412.0
414.0
415.0
415.0
411.0
407.0
400.0
392.0
385.0
375.0
362.0
351.0
345.0
340.0
338.0
334.0
330.0
325.0
326.0
327.0
324.0
323.0
324.0
324.0
325.0
325.0
324.0
325.0
327.0
326.0
325.0
327.0
327.0
328.0
330.0
333.0
332.0
331.0
333.0
334.0
332.0
331.0
330.0
331.0
331.0
330.0
329.0
326.0
327.0
329.0
329.0
327.0
328.0
328.0
327.0
327.0
327.0
326.0
325.0
325.0
323.0
321.0
324.0
327.0
327.0
324.0
321.0
325.0
328.0
325.0
322.0
323.0
324.0
326.0
328.0
325.0
325.0
327.0
326.0
325.0
327.0
331.0
334.0
330.0
329.0
331.0
334.0
346.0
353.0
348.0
335.0
327.0
325.0
326.0
323.0
319.0
320.0
323.0
323.0
321.0
321.0
334.0
347.0
344.0
349.0
414.0
503.0
513.0
423.0
334.0
314.0
272.0
264.0
299.0
324.0
320.0
311.0
315.0
318.0
320.0
322.0
320.0
319.0
321.0
326.0
327.0
324.0
324.0
326.0
326.0
326.0
329.0
330.0
331.0
331.0
333.0
335.0
336.0
337.0
337.0
337.0
340.0
344.0
346.0
349.0
354.0
358.0
361.0
366.0
374.0
379.0
383.0
387.0
394.0
400.0
399.0
399.0
402.0
401.0
400.0
395.0
385.0
372.0
362.0
351.0
341.0
333.0
325.0
320.0
316.0
312.0
310.0
308.0
308.0
308.0
306.0
305.0
305.0
309.0
310.0
306.0
304.0
309.0
312.0
310.0
308.0
312.0
315.0
315.0
316.0
316.0
316.0
318.0
320.0
319.0
317.0
317.0
319.0
318.0
316.0
317.0
319.0
318.0
317.0
315.0
315.0
317.0
320.0
318.0
316.0
316.0
319.0
319.0
317.0
315.0
317.0
320.0
319.0
318.0
318.0
318.0
321.0
321.0
318.0
321.0
323.0
322.0
322.0
321.0
321.0
322.0
321.0
323.0
322.0
322.0
324.0
324.0
323.0
324.0
324.0
323.0
326.0
328.0
326.0
325.0
332.0
332.0
331.0
336.0
339.0
345.0
352.0
351.0
339.0
331.0
329.0
331.0
328.0
324.0
323.0
325.0
327.0
327.0
328.0
336.0
349.0
343.0
349.0
422.0
521.0
548.0
466.0
355.0
318.0
272.0
259.0
298.0
330.0
324.0
316.0
319.0
324.0
324.0
322.0
323.0
326.0
326.0
329.0
328.0
327.0
329.0
331.0
331.0
333.0
333.0
333.0
335.0
336.0
338.0
340.0
342.0
341.0
342.0
344.0
346.0
347.0
350.0
353.0
355.0
360.0
365.0
372.0
379.0
382.0
390.0
398.0
401.0
404.0
408.0
412.0
412.0
412.0
410.0
405.0
397.0
388.0
378.0
364.0
354.0
344.0
334.0
326.0
323.0
321.0
316.0
313.0
314.0
316.0
314.0
311.0
312.0
315.0
312.0
311.0
314.0
315.0
317.0
317.0
317.0
319.0
319.0
321.0
324.0
322.0
321.0
322.0
323.0
324.0
322.0
323.0
322.0
319.0
321.0
324.0
323.0
320.0
319.0
319.0
323.0
322.0
320.0
320.0
321.0
320.0
320.0
321.0
322.0
321.0
322.0
322.0
324.0
323.0
324.0
324.0
323.0
322.0
323.0
323.0
322.0
324.0
324.0
324.0
326.0
327.0
322.0
322.0
325.0
329.0
327.0
324.0
325.0
330.0
328.0
325.0
328.0
330.0
329.0
328.0
330.0
331.0
335.0
337.0
335.0
335.0
337.0
341.0
352.0
359.0
352.0
341.0
333.0
328.0
330.0
330.0
328.0
328.0
326.0
327.0
331.0
332.0
340.0
349.0
345.0
367.0
461.0
558.0
564.0
460.0
360.0
320.0
257.0
260.0
316.0
344.0
324.0
311.0
319.0
328.0
329.0
324.0
324.0
328.0
330.0
330.0
331.0
332.0
334.0
333.0
332.0
335.0
338.0
341.0
342.0
341.0
344.0
348.0
348.0
346.0
345.0
349.0
354.0
357.0
357.0
361.0
366.0
369.0
375.0
381.0
385.0
391.0
399.0
403.0
406.0
411.0
412.0
416.0
420.0
418.0
416.0
413.0
405.0
393.0
383.0
373.0
360.0
348.0
342.0
337.0
329.0
324.0
323.0
323.0
321.0
320.0
322.0
324.0
322.0
319.0
322.0
325.0
322.0
325.0
327.0
327.0
324.0
326.0
331.0
333.0
333.0
330.0
330.0
332.0
332.0
332.0
334.0
335.0
332.0
331.0
333.0
332.0
331.0
332.0
333.0
333.0
332.0
330.0
330.0
333.0
331.0
331.0
334.0
334.0
334.0
335.0
335.0
334.0
335.0
334.0
335.0
335.0
335.0
337.0
336.0
334.0
334.0
335.0
337.0
338.0
338.0
337.0
338.0
339.0
340.0
336.0
336.0
340.0
341.0
339.0
344.0
347.0
346.0
346.0
348.0
356.0
366.0
368.0
356.0
349.0
344.0
343.0
340.0
335.0
336.0
342.0
343.0
340.0
338.0
342.0
362.0
371.0
363.0
392.0
481.0
540.0
489.0
384.0
338.0
313.0
279.0
297.0
330.0
340.0
335.0
331.0
333.0
336.0
340.0
340.0
337.0
337.0
342.0
344.0
341.0
343.0
346.0
345.0
345.0
345.0
345.0
346.0
348.0
351.0
351.0
350.0
352.0
356.0
359.0
360.0
360.0
362.0
365.0
368.0
372.0
376.0
380.0
385.0
388.0
395.0
400.0
404.0
407.0
409.0
411.0
414.0
414.0
412.0
408.0
400.0
392.0
384.0
373.0
365.0
358.0
347.0
341.0
337.0
332.0
331.0
327.0
325.0
326.0
327.0
324.0
322.0
321.0
322.0
323.0
324.0
324.0
325.0
325.0
324.0
325.0
329.0
329.0
328.0
329.0
330.0
327.0
328.0
330.0
330.0
328.0
327.0
328.0
327.0
326.0
325.0
326.0
325.0
326.0
326.0
323.0
322.0
323.0
319.0
319.0
321.0
323.0
322.0
318.0
317.0
319.0
320.0
319.0
319.0
320.0
318.0
317.0
320.0
322.0
319.0
318.0
319.0
320.0
321.0
320.0
319.0
321.0
322.0
321.0
320.0
321.0
322.0
323.0
323.0
324.0
325.0
324.0
326.0
330.0
335.0
343.0
346.0
339.0
330.0
323.0
321.0
322.0
318.0
314.0
315.0
320.0
322.0
318.0
317.0
330.0
344.0
338.0
359.0
442.0
517.0
501.0
397.0
323.0
300.0
260.0
267.0
304.0
323.0
316.0
310.0
314.0
318.0
318.0
316.0
317.0
319.0
321.0
322.0
322.0
322.0
325.0
326.0
323.0
325.0
328.0
330.0
330.0
330.0
334.0
334.0
333.0
335.0
337.0
339.0
341.0
343.0
345.0
346.0
353.0
359.0
366.0
368.0
372.0
378.0
386.0
392.0
393.0
398.0
402.0
403.0
403.0
402.0
402.0
394.0
381.0
372.0
364.0
355.0
342.0
334.0
327.0
321.0
316.0
314.0
311.0
309.0
310.0
309.0
306.0
306.0
307.0
306.0
306.0
307.0
311.0
311.0
309.0
310.0
314.0
318.0
317.0
315.0
315.0
316.0
318.0
319.0
320.0
319.0
319.0
321.0
320.0
320.0
320.0
319.0
318.0
318.0
317.0
317.0
316.0
317.0
319.0
318.0
317.0
320.0
320.0
318.0
318.0
320.0
320.0
318.0
317.0
318.0
321.0
323.0
319.0
317.0
320.0
321.0
320.0
319.0
321.0
324.0
324.0
322.0
321.0
321.0
322.0
324.0
323.0
324.0
325.0
325.0
322.0
322.0
325.0
326.0
326.0
326.0
326.0
330.0
334.0
331.0
332.0
333.0
339.0
349.0
354.0
347.0
335.0
328.0
328.0
329.0
326.0
322.0
323.0
327.0
327.0
326.0
325.0
338.0
352.0
343.0
357.0
449.0
548.0
555.0
450.0
349.0
319.0
263.0
257.0
305.0
334.0
322.0
314.0
316.0
321.0
323.0
320.0
321.0
325.0
326.0
325.0
326.0
325.0
326.0
331.0
334.0
334.0
333.0
332.0
335.0
336.0
337.0
338.0
341.0
342.0
341.0
344.0
349.0
350.0
352.0
357.0
360.0
363.0
368.0
376.0
382.0
385.0
391.0
398.0
406.0
410.0
413.0
415.0
416.0
413.0
413.0
411.0
403.0
391.0
379.0
366.0
354.0
344.0
336.0
328.0
322.0
319.0
317.0
314.0
309.0
311.0
314.0
312.0
310.0
312.0
316.0
313.0
314.0
315.0
317.0
316.0
319.0
320.0
320.0
319.0
322.0
324.0
322.0
322.0
323.0
323.0
323.0
324.0
323.0
321.0
320.0
321.0
322.0
320.0
321.0
322.0
322.0
320.0
321.0
324.0
324.0
320.0
319.0
323.0
323.0
323.0
320.0
322.0
325.0
324.0
323.0
323.0
322.0
323.0
326.0
327.0
325.0
324.0
326.0
327.0
326.0
326.0
329.0
330.0
330.0
326.0
326.0
329.0
331.0
330.0
331.0
330.0
333.0
334.0
333.0
331.0
332.0
336.0
341.0
341.0
337.0
338.0
342.0
347.0
356.0
361.0
355.0
344.0
335.0
334.0
335.0
332.0
329.0
331.0
334.0
334.0
334.0
334.0
346.0
360.0
352.0
373.0
468.0
560.0
551.0
447.0
361.0
323.0
262.0
271.0
323.0
343.0
329.0
322.0
327.0
333.0
331.0
329.0
331.0
334.0
337.0
337.0
337.0
338.0
337.0
340.0
342.0
343.0
342.0
342.0
345.0
347.0
350.0
350.0
349.0
352.0
352.0
354.0
359.0
361.0
361.0
364.0
369.0
376.0
381.0
384.0
387.0
396.0
403.0
405.0
411.0
417.0
419.0
419.0
421.0
423.0
420.0
414.0
407.0
398.0
390.0
378.0
365.0
354.0
349.0
343.0
337.0
334.0
332.0
330.0
329.0
327.0
328.0
326.0
325.0
326.0
328.0
326.0
329.0
332.0
332.0
332.0
332.0
332.0
335.0
336.0
335.0
334.0
335.0
339.0
339.0
336.0
336.0
336.0
338.0
337.0
334.0
337.0
340.0
338.0
336.0
335.0
334.0
336.0
334.0
333.0
334.0
333.0
334.0
334.0
335.0
336.0
334.0
335.0
335.0
335.0
335.0
335.0
336.0
337.0
336.0
334.0
335.0
335.0
336.0
337.0
335.0
332.0
334.0
337.0
337.0
336.0
335.0
336.0
336.0
338.0
341.0
338.0
339.0
343.0
347.0
355.0
362.0
361.0
352.0
345.0
337.0
334.0
333.0
334.0
334.0
334.0
334.0
334.0
334.0
337.0
351.0
360.0
353.0
382.0
465.0
527.0
485.0
388.0
338.0
311.0
271.0
288.0
325.0
336.0
328.0
324.0
327.0
331.0
333.0
333.0
330.0
330.0
337.0
338.0
334.0
336.0
339.0
338.0
339.0
340.0
340.0
339.0
340.0
343.0
342.0
342.0
346.0
348.0
348.0
349.0
354.0
356.0
356.0
358.0
362.0
367.0
371.0
374.0
381.0
387.0
393.0
396.0
400.0
404.0
405.0
405.0
407.0
406.0
402.0
395.0
386.0
375.0
363.0
354.0
343.0
334.0
330.0
324.0
319.0
315.0
314.0
313.0
312.0
308.0
309.0
309.0
307.0
309.0
312.0
313.0
310.0
307.0
311.0
317.0
315.0
313.0
313.0
316.0
318.0
318.0
318.0
319.0
319.0
319.0
318.0
317.0
317.0
319.0
318.0
317.0
316.0
317.0
317.0
316.0
316.0
315.0
314.0
314.0
315.0
315.0
315.0
314.0
314.0
316.0
317.0
316.0
313.0
315.0
315.0
316.0
317.0
316.0
316.0
317.0
314.0
317.0
319.0
318.0
317.0
316.0
318.0
319.0
318.0
319.0
318.0
319.0
321.0
320.0
319.0
320.0
321.0
322.0
325.0
326.0
325.0
327.0
329.0
333.0
342.0
348.0
344.0
334.0
325.0
321.0
322.0
321.0
318.0
318.0
319.0
322.0
322.0
320.0
332.0
346.0
340.0
352.0
433.0
522.0
526.0
433.0
340.0
313.0
265.0
259.0
298.0
325.0
318.0
310.0
314.0
316.0
318.0
321.0
320.0
318.0
320.0
321.0
323.0
324.0
323.0
323.0
324.0
326.0
329.0
327.0
331.0
334.0
332.0
331.0
335.0
336.0
338.0
339.0
340.0
342.0
347.0
348.0
351.0
357.0
366.0
369.0
371.0
378.0
387.0
392.0
395.0
399.0
403.0
406.0
409.0
408.0
403.0
401.0
394.0
384.0
372.0
359.0
349.0
340.0
334.0
325.0
318.0
314.0
312.0
311.0
310.0
308.0
308.0
309.0
308.0
307.0
309.0
309.0
311.0
311.0
310.0
311.0
314.0
314.0
315.0
315.0
316.0
317.0
320.0
318.0
317.0
321.0
321.0
320.0
320.0
320.0
318.0
318.0
319.0
317.0
315.0
317.0
319.0
320.0
317.0
316.0
320.0
321.0
319.0
317.0
319.0
319.0
320.0
318.0
318.0
320.0
321.0
321.0
318.0
320.0
322.0
321.0
320.0
322.0
322.0
322.0
323.0
324.0
324.0
324.0
322.0
323.0
324.0
324.0
325.0
326.0
325.0
326.0
324.0
325.0
326.0
324.0
329.0
331.0
331.0
333.0
333.0
333.0
334.0
336.0
344.0
353.0
354.0
341.0
331.0
327.0
330.0
325.0
322.0
326.0
327.0
326.0
326.0
324.0
333.0
348.0
345.0
353.0
433.0
544.0
577.0
498.0
384.0
334.0
263.0
242.0
295.0
335.0
325.0
308.0
310.0
320.0
323.0
319.0
319.0
322.0
324.0
324.0
324.0
325.0
327.0
329.0
330.0
331.0
333.0
332.0
331.0
335.0
338.0
338.0
339.0
340.0
340.0
343.0
345.0
349.0
353.0
354.0
358.0
362.0
369.0
374.0
377.0
385.0
394.0
399.0
405.0
409.0
413.0
415.0
417.0
419.0
420.0
416.0
407.0
396.0
384.0
374.0
361.0
350.0
340.0
331.0
324.0
322.0
321.0
317.0
317.0
314.0
313.0
316.0
316.0
313.0
313.0
316.0
319.0
318.0
316.0
318.0
322.0
323.0
325.0
324.0
322.0
324.0
326.0
326.0
325.0
327.0
328.0
327.0
327.0
326.0
325.0
327.0
330.0
328.0
326.0
326.0
326.0
327.0
327.0
326.0
327.0
328.0
326.0
326.0
327.0
329.0
330.0
327.0
326.0
329.0
332.0
332.0
329.0
330.0
331.0
331.0
331.0
331.0
331.0
332.0
333.0
331.0
332.0
332.0
332.0
335.0
336.0
333.0
334.0
335.0
337.0
336.0
334.0
339.0
342.0
340.0
342.0
344.0
349.0
362.0
364.0
354.0
344.0
338.0
338.0
340.0
336.0
332.0
334.0
336.0
339.0
338.0
338.0
354.0
363.0
358.0
397.0
491.0
549.0
501.0
400.0
348.0
311.0
272.0
295.0
332.0
339.0
332.0
332.0
335.0
337.0
336.0
336.0
340.0
341.0
340.0
342.0
347.0
346.0
346.0
345.0
345.0
348.0
351.0
350.0
348.0
350.0
352.0
352.0
354.0
358.0
360.0
361.0
363.0
364.0
367.0
370.0
375.0
380.0
385.0
388.0
394.0
402.0
407.0
410.0
414.0
416.0
419.0
420.0
421.0
422.0
418.0
413.0
402.0
392.0
384.0
375.0
363.0
350.0
343.0
340.0
337.0
332.0
327.0
327.0
327.0
325.0
324.0
326.0
326.0
327.0
325.0
324.0
324.0
325.0
327.0
328.0
327.0
329.0
330.0
331.0
332.0
332.0
332.0
331.0
332.0
330.0
330.0
331.0
331.0
331.0
330.0
328.0
328.0
329.0
328.0
326.0
328.0
327.0
327.0
326.0
325.0
326.0
326.0
324.0
323.0
325.0
326.0
327.0
325.0
322.0
324.0
326.0
324.0
323.0
326.0
326.0
323.0
323.0
325.0
325.0
324.0
324.0
323.0
325.0
326.0
326.0
328.0
326.0
327.0
330.0
333.0
339.0
347.0
350.0
343.0
332.0
325.0
324.0
323.0
320.0
319.0
321.0
325.0
322.0
320.0
323.0
340.0
346.0
339.0
372.0
461.0
524.0
485.0
383.0
323.0
291.0
256.0
277.0
312.0
319.0
311.0
312.0
316.0
318.0
317.0
315.0
317.0
321.0
324.0
321.0
322.0
326.0
329.0
328.0
327.0
329.0
331.0
331.0
331.0
334.0
335.0
335.0
336.0
338.0
341.0
342.0
343.0
344.0
348.0
353.0
357.0
361.0
366.0
370.0
377.0
383.0
390.0
396.0
397.0
403.0
409.0
407.0
404.0
404.0
403.0
396.0
386.0
375.0
362.0
353.0
343.0
333.0
326.0
319.0
315.0
310.0
309.0
309.0
307.0
306.0
305.0
305.0
305.0
307.0
307.0
305.0
307.0
307.0
308.0
309.0
311.0
314.0
314.0
313.0
314.0
317.0
317.0
319.0
318.0
316.0
318.0
321.0
318.0
316.0
318.0
319.0
314.0
312.0
314.0
317.0
318.0
316.0
315.0
316.0
315.0
315.0
317.0
317.0
316.0
317.0
317.0
315.0
317.0
318.0
317.0
318.0
318.0
316.0
314.0
